    K     TauRoss     Tau( 5000.) Geom. Depth     T        Pe          Pg         Prad        Pturb    KappaRoss     K
    1   0.0000010    0.0000016   -8.127E+07    3859.   5.542E-03   7.024E+01   1.483E+00   0.000E+00   6.616E-04     1
    2   0.0000013    0.0000020   -8.001E+07    3872.   6.313E-03   8.051E+01   1.483E+00   0.000E+00   7.292E-04     2
    3   0.0000016    0.0000025   -7.874E+07    3888.   7.211E-03   9.221E+01   1.483E+00   0.000E+00   8.052E-04     3
    4   0.0000020    0.0000031   -7.748E+07    3907.   8.243E-03   1.055E+02   1.483E+00   0.000E+00   8.902E-04     4
    5   0.0000025    0.0000039   -7.621E+07    3926.   9.423E-03   1.207E+02   1.483E+00   0.000E+00   9.852E-04     5
    6   0.0000032    0.0000048   -7.495E+07    3946.   1.077E-02   1.380E+02   1.483E+00   0.000E+00   1.091E-03     6
    7   0.0000040    0.0000059   -7.369E+07    3967.   1.231E-02   1.576E+02   1.483E+00   0.000E+00   1.209E-03     7
    8   0.0000050    0.0000073   -7.242E+07    3988.   1.405E-02   1.798E+02   1.483E+00   0.000E+00   1.341E-03     8
    9   0.0000063    0.0000090   -7.116E+07    4009.   1.604E-02   2.051E+02   1.483E+00   0.000E+00   1.490E-03     9
   10   0.0000079    0.0000110   -6.990E+07    4031.   1.830E-02   2.337E+02   1.483E+00   0.000E+00   1.652E-03    10
   11   0.0000100    0.0000135   -6.863E+07    4052.   2.087E-02   2.662E+02   1.483E+00   0.000E+00   1.832E-03    11
   12   0.0000126    0.0000167   -6.737E+07    4075.   2.379E-02   3.031E+02   1.483E+00   0.000E+00   2.033E-03    12
   13   0.0000158    0.0000205   -6.610E+07    4097.   2.712E-02   3.450E+02   1.483E+00   0.000E+00   2.255E-03    13
   14   0.0000200    0.0000253   -6.482E+07    4119.   3.089E-02   3.925E+02   1.484E+00   0.000E+00   2.503E-03    14
   15   0.0000251    0.0000311   -6.354E+07    4142.   3.518E-02   4.464E+02   1.484E+00   0.000E+00   2.777E-03    15
   16   0.0000316    0.0000384   -6.226E+07    4165.   4.005E-02   5.075E+02   1.484E+00   0.000E+00   3.083E-03    16
   17   0.0000398    0.0000475   -6.098E+07    4188.   4.559E-02   5.768E+02   1.484E+00   0.000E+00   3.422E-03    17
   18   0.0000501    0.0000587   -5.969E+07    4211.   5.187E-02   6.555E+02   1.484E+00   0.000E+00   3.799E-03    18
   19   0.0000631    0.0000726   -5.840E+07    4234.   5.901E-02   7.446E+02   1.485E+00   0.000E+00   4.217E-03    19
   20   0.0000794    0.0000899   -5.710E+07    4258.   6.710E-02   8.457E+02   1.485E+00   0.000E+00   4.682E-03    20
   21   0.0001000    0.0001115   -5.579E+07    4281.   7.628E-02   9.603E+02   1.485E+00   0.000E+00   5.200E-03    21
   22   0.0001259    0.0001383   -5.448E+07    4304.   8.669E-02   1.090E+03   1.485E+00   0.000E+00   5.775E-03    22
   23   0.0001585    0.0001717   -5.317E+07    4327.   9.847E-02   1.238E+03   1.486E+00   0.000E+00   6.414E-03    23
   24   0.0001995    0.0002134   -5.185E+07    4350.   1.118E-01   1.404E+03   1.486E+00   0.000E+00   7.126E-03    24
   25   0.0002512    0.0002654   -5.053E+07    4373.   1.269E-01   1.594E+03   1.487E+00   0.000E+00   7.918E-03    25
   26   0.0003162    0.0003302   -4.920E+07    4395.   1.440E-01   1.808E+03   1.487E+00   0.000E+00   8.799E-03    26
   27   0.0003981    0.0004112   -4.786E+07    4418.   1.632E-01   2.051E+03   1.488E+00   0.000E+00   9.779E-03    27
   28   0.0005012    0.0005122   -4.653E+07    4440.   1.850E-01   2.326E+03   1.489E+00   0.000E+00   1.087E-02    28
   29   0.0006310    0.0006385   -4.518E+07    4462.   2.096E-01   2.637E+03   1.490E+00   0.000E+00   1.208E-02    29
   30   0.0007943    0.0007962   -4.383E+07    4483.   2.374E-01   2.989E+03   1.491E+00   0.000E+00   1.344E-02    30
   31   0.0010000    0.0009933   -4.248E+07    4505.   2.688E-01   3.389E+03   1.492E+00   0.000E+00   1.494E-02    31
   32   0.0012589    0.0012397   -4.112E+07    4526.   3.041E-01   3.841E+03   1.493E+00   0.000E+00   1.662E-02    32
   33   0.0015849    0.0015476   -3.976E+07    4547.   3.441E-01   4.352E+03   1.495E+00   0.000E+00   1.848E-02    33
   34   0.0019953    0.0019326   -3.839E+07    4569.   3.892E-01   4.931E+03   1.497E+00   0.000E+00   2.056E-02    34
   35   0.0025119    0.0024140   -3.702E+07    4590.   4.401E-01   5.586E+03   1.499E+00   0.000E+00   2.287E-02    35
   36   0.0031623    0.0030158   -3.564E+07    4611.   4.975E-01   6.328E+03   1.502E+00   0.000E+00   2.544E-02    36
   37   0.0039811    0.0037684   -3.426E+07    4633.   5.625E-01   7.167E+03   1.505E+00   0.000E+00   2.830E-02    37
   38   0.0050119    0.0047096   -3.287E+07    4655.   6.359E-01   8.116E+03   1.509E+00   0.000E+00   3.149E-02    38
   39   0.0063096    0.0058864   -3.148E+07    4677.   7.190E-01   9.191E+03   1.514E+00   0.000E+00   3.503E-02    39
   40   0.0079433    0.0073580   -3.008E+07    4700.   8.130E-01   1.041E+04   1.519E+00   0.000E+00   3.898E-02    40
   41   0.0100000    0.0091981   -2.868E+07    4724.   9.198E-01   1.178E+04   1.526E+00   0.000E+00   4.338E-02    41
   42   0.0125892    0.0114982   -2.726E+07    4748.   1.041E+00   1.334E+04   1.535E+00   0.000E+00   4.829E-02    42
   43   0.0158489    0.0143725   -2.585E+07    4774.   1.179E+00   1.510E+04   1.545E+00   0.000E+00   5.376E-02    43
   44   0.0199526    0.0179629   -2.442E+07    4802.   1.338E+00   1.709E+04   1.557E+00   0.000E+00   5.989E-02    44
   45   0.0251188    0.0224453   -2.300E+07    4832.   1.519E+00   1.933E+04   1.572E+00   0.000E+00   6.673E-02    45
   46   0.0316227    0.0280396   -2.156E+07    4864.   1.728E+00   2.187E+04   1.591E+00   0.000E+00   7.437E-02    46
   47   0.0398106    0.0350188   -2.012E+07    4900.   1.971E+00   2.474E+04   1.614E+00   0.000E+00   8.292E-02    47
   48   0.0501186    0.0437216   -1.866E+07    4939.   2.254E+00   2.798E+04   1.642E+00   0.000E+00   9.249E-02    48
   49   0.0630956    0.0545706   -1.720E+07    4983.   2.585E+00   3.163E+04   1.676E+00   0.000E+00   1.032E-01    49
   50   0.0794327    0.0680940   -1.573E+07    5030.   2.974E+00   3.575E+04   1.718E+00   0.000E+00   1.152E-01    50
   51   0.0999998    0.0849495   -1.425E+07    5085.   3.442E+00   4.039E+04   1.770E+00   0.000E+00   1.288E-01    51
   52   0.1258923    0.1059596   -1.275E+07    5145.   4.004E+00   4.562E+04   1.834E+00   0.000E+00   1.441E-01    52
   53   0.1584891    0.1321559   -1.125E+07    5213.   4.699E+00   5.149E+04   1.913E+00   0.000E+00   1.617E-01    53
   54   0.1995259    0.1648333   -9.732E+06    5290.   5.572E+00   5.806E+04   2.009E+00   0.000E+00   1.824E-01    54
   55   0.2511883    0.2056226   -8.214E+06    5378.   6.705E+00   6.537E+04   2.129E+00   0.000E+00   2.074E-01    55
   56   0.3162273    0.2565736   -6.703E+06    5478.   8.241E+00   7.341E+04   2.277E+00   0.000E+00   2.391E-01    56
   57   0.3981066    0.3202323   -5.215E+06    5592.   1.041E+01   8.210E+04   2.460E+00   0.000E+00   2.816E-01    57
   58   0.5011865    0.3997611   -3.776E+06    5723.   1.363E+01   9.127E+04   2.688E+00   0.000E+00   3.411E-01    58
   59   0.6309565    0.4992053   -2.412E+06    5872.   1.863E+01   1.006E+05   2.971E+00   0.000E+00   4.270E-01    59
   60   0.7943271    0.6237925   -1.148E+06    6040.   2.661E+01   1.099E+05   3.324E+00   0.000E+00   5.532E-01    60
   61   0.9999986    0.7801385    0.000E+00    6231.   3.974E+01   1.188E+05   3.765E+00   0.000E+00   7.418E-01    61
   62   1.2589236    0.9763865    1.020E+06    6447.   6.199E+01   1.269E+05   4.317E+00   0.000E+00   1.030E+00    62
   63   1.5848910    1.2218479    1.908E+06    6689.   1.001E+02   1.342E+05   5.011E+00   0.000E+00   1.478E+00    63
   64   1.9952595    1.5265182    2.662E+06    6977.   1.706E+02   1.404E+05   5.887E+00   0.000E+00   2.233E+00    64
   65   2.5118828    1.9016985    3.283E+06    7308.   3.021E+02   1.455E+05   6.968E+00   0.000E+00   3.504E+00    65
   66   3.1622732    2.3610845    3.798E+06    7613.   4.913E+02   1.497E+05   8.183E+00   0.000E+00   5.220E+00    66
   67   3.9810660    2.9222131    4.251E+06    7872.   7.251E+02   1.533E+05   9.435E+00   0.000E+00   7.276E+00    67
   68   5.0118651    3.6084490    4.674E+06    8093.   9.940E+02   1.567E+05   1.064E+01   0.000E+00   9.607E+00    68
   69   6.3095651    4.4505577    5.087E+06    8286.   1.294E+03   1.600E+05   1.178E+01   0.000E+00   1.219E+01    69
   70   7.9432721    5.4879951    5.503E+06    8458.   1.624E+03   1.633E+05   1.284E+01   0.000E+00   1.502E+01    70
   71  10.0000000    6.7700944    5.932E+06    8616.   1.987E+03   1.667E+05   1.386E+01   0.000E+00   1.815E+01    71
   72  15.8489332   10.3343678    6.879E+06    8900.   2.819E+03   1.741E+05   1.581E+01   0.000E+00   2.536E+01    72
   73  25.1188698   15.8435574    7.955E+06    9165.   3.850E+03   1.827E+05   1.779E+01   0.000E+00   3.440E+01    73
   74  39.8107300   24.4133682    9.201E+06    9421.   5.142E+03   1.928E+05   1.986E+01   0.000E+00   4.582E+01    74
   75  63.0957603   37.8353500    1.066E+07    9675.   6.779E+03   2.049E+05   2.209E+01   0.000E+00   6.027E+01    75
   76 100.0000534   59.0214272    1.236E+07    9930.   8.874E+03   2.195E+05   2.452E+01   0.000E+00   7.854E+01    76
